Date,Time,Temperature (C),SpO2 (%),Pulse Rate (bpm),Breaths/minute,Pleth Variability Index,Perfusion Index,Blood Pressure Systolic (mmHg),Blood Pressure Diastolic (mmHg),Weight (kg),BMI,Body Fat (%),Muscle Rate (%),Fat-free Body Weight (kg),Subcutaneous Fat (%),Visceral Fat (%),Body Water (%),Skeletal Muscle (%),Muscle Mass (kg),Bone Mass (kg),Protein (%),BMR (kcal),Body Age,Breakfast Time,Breakfast Blood Glucose (mg/dL),Breakfast CGM (mg/dL),Breakfast Insulin (Units),Lunch Time,Lunch Blood Glucose (mg/dL),Lunch CGM (mg/dL),Lunch Insulin (Units),Dinner Time,Dinner Blood Glucose (mg/dL),Dinner CGM (mg/dL),Dinner Insulin (Units),Bedtime,Bedtime Blood Glucose (mg/dL),Bedtime CGM (mg/dL),Bedtime Insulin (Units)
2022/12/31,725.0,34.0,96.0,60.0,10.0,8.0,14.0,111.0,75.0,94.8,26.8,25.8,70.2,70.3,18.4,18.0,52.5,39.9,66.5,3.9,17.7,1917.0,50.0,810.0,98.0,,6.0,1210.0,91.0,,6.0,1800.0,114.0,,2.0,2210.0,102.0,,
2022/12/30,615.0,34.0,95.0,65.0,19.0,12.0,19.7,105.0,68.0,94.7,26.8,25.8,70.2,70.3,18.4,18.0,52.5,39.8,66.5,3.9,17.7,1915.0,50.0,800.0,99.0,,6.0,1205.0,104.0,,6.0,1800.0,132.0,,2.0,2200.0,105.0,,
2022/12/29,440.0,34.3,94.0,56.0,13.0,6.0,6.4,114.0,76.0,94.9,26.9,25.7,70.3,70.5,18.4,18.0,52.5,40.0,66.7,3.9,17.7,1922.0,50.0,830.0,91.0,,6.0,1205.0,91.0,,6.0,1740.0,135.0,,2.0,2220.0,134.0,,
2022/12/28,730.0,34.3,96.0,63.0,11.0,12.0,16.7,109.0,69.0,94.6,26.8,25.6,70.3,70.4,18.3,18.0,52.6,40.0,66.5,3.9,17.8,1917.0,50.0,820.0,89.0,,6.0,1205.0,92.0,,6.0,1755.0,127.0,,2.0,2200.0,105.0,,
2022/12/27,655.0,34.3,96.0,61.0,13.0,8.0,12.3,110.0,72.0,93.95,26.6,25.6,70.2,69.9,18.3,18.0,52.5,39.7,66.0,3.9,17.7,1900.0,50.0,820.0,99.0,,6.0,1205.0,96.0,,6.0,1755.0,146.0,,2.0,2315.0,93.0,,
2022/12/26,630.0,34.8,95.0,69.0,10.0,,16.0,115.0,77.0,93.9,26.6,25.5,70.4,70.0,18.2,17.5,52.6,39.9,66.1,3.9,17.8,1902.0,50.0,810.0,97.0,,6.0,1200.0,92.0,,6.0,1730.0,137.0,,2.0,2115.0,111.0,,
2022/12/25,625.0,34.8,95.0,61.0,13.0,8.0,9.7,111.0,73.0,94.6,26.8,25.5,70.6,70.5,18.2,17.5,52.7,40.4,66.8,3.7,17.9,1924.0,49.0,810.0,98.0,83.0,6.0,1200.0,95.0,,6.0,1645.0,124.0,,2.0,2200.0,95.0,,
2022/12/24,625.0,34.8,96.0,60.0,10.0,23.0,13.8,111.0,75.0,94.70,26.8,25.6,70.4,70.5,18.3,18.0,52.6,40.1,66.7,3.9,17.8,1921.0,50.0,740.0,82.0,87.0,6.0,1240.0,90.0,,6.0,1740.0,80.0,88.0,2.0,2330.0,88.0,77.0,
2022/12/23,645.0,34.8,96.0,59.0,11.0,,9.1,110.0,75.0,94.30,26.7,25.6,70.4,70.2,18.3,17.5,52.6,40.0,66.4,3.9,17.8,1912.0,50.0,800.0,97.0,69.0,6.0,1145.0,113.0,104.0,6.0,1715.0,125.0,110.0,2.0,2210.0,84.0,77.0,
2022/12/22,535.0,34.6,97.0,60.0,13.0,15.0,11.3,109.0,72.0,94.30,26.7,25.1,71.0,70.6,18.0,17.0,52.9,40.9,67.0,3.6,18.1,1928.0,47.0,530.0,93.0,101.0,6.0,1205.0,107.0,,6.0,1720.0,127.0,,2.0,2320.0,99.0,107.0,
2022/12/21,645.0,34.6,97.0,65.0,11.0,39.0,9.5,109.0,70.0,93.85,26.6,25.4,70.5,70.0,18.2,17.5,52.7,40.1,66.2,3.9,17.9,1905.0,49.0,815.0,97.0,106.0,6.0,1225.0,109.0,108.0,6.0,1735.0,115.0,,2.0,2320.0,108.0,124.0,
2022/12/20,525.0,34.3,94.0,58.0,10.0,8.0,13.1,111.0,73.0,93.85,26.6,25.4,70.5,70.0,18.2,17.5,52.6,40.1,66.2,3.9,17.9,1904.0,50.0,820.0,84.0,101.0,6.0,1220.0,85.0,96.0,6.0,1720.0,112.0,108.0,2.0,2310.0,112.0,122.0,
2022/12/19,740.0,34.6,94.0,63.0,16.0,13.0,10.7,112.0,72.0,94.25,26.7,25.6,70.3,70.1,18.3,18.0,52.5,39.8,66.3,3.9,17.7,1907.0,50.0,800.0,79.0,97.0,6.0,1145.0,94.0,101.0,6.0,1720.0,121.0,120.0,2.0,2200.0,142.0,116.0,
2022/12/18,550.0,34.6,92.0,57.0,,,,114.0,74.0,94.25,26.7,25.4,70.6,70.3,18.2,17.5,52.7,40.3,66.5,3.9,17.9,1916.0,49.0,750.0,85.0,102.0,6.0,1205.0,88.0,92.0,6.0,1715.0,83.0,105.0,2.0,2215.0,90.0,95.0,
2022/12/17,635.0,34.1,94.0,59.0,,,,110.0,73.0,94.20,26.7,25.2,70.8,70.5,18.0,17.0,52.8,40.6,66.7,3.7,18.0,1921.0,48.0,800.0,85.0,106.0,6.0,1135.0,88.0,99.0,6.0,1645.0,73.0,90.0,2.0,2240.0,106.0,105.0,
2022/12/16,410.0,34.6,89.0,55.0,,,,116.0,77.0,94.10,26.6,25.1,71.0,70.5,18.0,17.0,52.9,40.8,66.8,3.7,18.1,1923.0,47.0,810.0,78.0,102.0,6.0,1155.0,83.0,111.0,6.0,1745.0,120.0,124.0,2.0,2205.0,117.0,128.0,
2022/12/15,640.0,35.8,93.0,60.0,,,,112.0,71.0,94.65,26.8,25.2,71.1,70.8,18.0,17.0,53.0,41.0,67.3,3.6,18.1,1937.0,47.0,800.0,97.0,93.0,6.0,1205.0,92.0,104.0,6.0,1800.0,98.0,115.0,2.0,2130.0,100.0,106.0,
2022/12/14,630.0,35.4,90.0,62.0,,,,112.0,72.0,94.05,26.6,25.0,71.2,70.5,17.9,17.0,53.0,41.1,67.0,3.6,18.2,1927.0,47.0,745.0,106.0,107.0,6.0,1150.0,106.0,113.0,6.0,1720.0,191.0,153.0,3.0,2200.0,88.0,94.0,
2022/12/13,555.0,32.5,93.0,57.0,,,,116.0,76.0,94.50,26.7,25.2,71.0,70.7,18.0,17.0,53.0,40.9,67.1,3.6,18.1,1933.0,47.0,810.0,105.0,111.0,6.0,1125.0,101.0,144.0,6.0,1810.0,114.0,131.0,2.0,2250.0,93.0,96.0,
2022/12/12,710.0,34.2,89.0,57.0,,,,110.0,73.0,94.65,26.8,25.6,70.5,70.4,18.3,17.5,52.7,40.2,66.7,3.9,17.8,1921.0,49.0,820.0,123.0,103.0,6.0,1230.0,113.0,118.0,6.0,1810.0,125.0,122.0,2.0,2210.0,110.0,117.0,
2022/12/11,745.0,32.0,91.0,58.0,,,,112.0,73.0,94.45,26.7,25.3,70.8,70.6,18.1,17.5,52.8,40.5,66.9,3.7,17.9,1924.0,48.0,820.0,98.0,106.0,6.0,1130.0,103.0,107.0,6.0,1745.0,140.0,156.0,2.0,2220.0,109.0,114.0,
2022/12/10,450.0,32.2,89.0,54.0,113.0,76.0,94.00,26.6,25.1,70.9,70.4,18.0,17.0,52.9,40.7,66.6,3.7,18.0,1919.0,48.0,815.0,111.0,108.0,6.0,1130.0,110.0,112.0,6.0,1755.0,123.0,129.0,2.0,2230.0,101.0,109.0,
2022/12/09,505.0,33.3,91.0,54.0,108.0,72.0,93.45,26.4,24.9,71.2,70.2,17.8,17.0,53.0,40.9,66.5,3.7,18.2,1913.0,47.0,745.0,95.0,117.0,6.0,1140.0,110.0,116.0,6.0,1720.0,138.0,135.0,2.0,2235.0,109.0,105.0,
2022/12/08,620.0,32.9,92.0,65.0,112.0,69.0,94.10,26.6,25.3,70.7,70.3,18.1,17.5,52.8,40.4,66.5,3.7,17.9,1916.0,49.0,755.0,114.0,105.0,6.0,1145.0,117.0,121.0,6.0,1740.0,130.0,126.0,2.0,2200.0,96.0,117.0,
2022/12/07,645.0,32.8,89.0,59.0,112.0,72.0,94.70,26.8,25.4,70.7,70.6,18.2,17.5,52.8,40.5,67.0,3.7,17.9,1929.0,48.0,755.0,80.0,89.0,6.0,1345.0,137.0,154.0,6.0,1735.0,129.0,117.0,2.0,2240.0,110.0,100.0,
2022/12/06,640.0,35.7,93.0,62.0,106.0,70.0,94.85,26.8,25.2,71.1,70.9,18.0,17.0,53.0,41.1,67.4,3.6,18.1,1942.0,47.0,750.0,97.0,104.0,6.0,1200.0,115.0,110.0,6.0,1655.0,107.0,103.0,2.0,2250.0,91.0,89.0,
2022/12/05,560.0,32.5,93.0,57.0,115.0,72.0,95.20,26.9,25.2,71.2,71.2,18.0,17.0,53.1,41.3,67.8,3.5,18.1,1953.0,46.0,810.0,102.0,114.0,6.0,1205.0,105.0,125.0,6.0,1720.0,104.0,125.0,2.0,2145.0,101.0,99.0,
2022/12/04,415.0,32.1,90.0,48.0,118.0,72.0,94.80,26.8,25.2,71.0,70.9,18.0,17.0,53.0,41.0,67.3,3.6,18.1,1939.0,47.0,730.0,100.0,,6.0,1205.0,100.0,,6.0,1800.0,135.0,149.0,2.0,2200.0,91.0,108.0,
2022/12/03,515.0,32.1,93.0,55.0,115.0,75.0,94.90,26.9,25.4,70.8,70.8,18.1,17.5,52.9,40.8,67.2,3.6,18.0,1937.0,48.0,720.0,90.0,119.0,6.0,1130.0,118.0,125.0,6.0,1725.0,111.0,,2.0,2230.0,99.0,,
2022/12/02,650.0,32.4,93.0,64.0,114.0,71.0,93.95,26.6,25.2,70.9,70.3,18.0,17.0,52.9,40.6,66.6,3.7,18.0,1917.0,48.0,730.0,80.0,105.0,6.0,1210.0,141.0,139.0,6.0,1750.0,128.0,112.0,2.0,2215.0,112.0,152.0,
2022/12/01,635.0,33.2,93.0,58.0,112.0,72.0,94.15,26.6,25.4,70.6,70.2,18.1,17.5,52.7,40.3,66.5,3.9,17.9,1914.0,49.0,800.0,91.0,97.0,6.0,1235.0,98.0,118.0,6.0,1735.0,167.0,159.0,3.0,2310.0,114.0,112.0,
2022/11/30,705.0,34.0,90.0,58.0,109.0,67.0,93.80,26.5,25.0,71.0,70.4,17.9,17.0,52.9,40.8,66.6,3.7,18.1,1918.0,47.0,735.0,71.0,93.0,6.0,1220.0,103.0,105.0,6.0,1705.0,117.0,112.0,4.0,2155.0,97.0,104.0,
2022/11/29,450.0,33.1,91.0,55.0,116.0,78.0,93.35,26.4,25.3,70.6,69.7,18.1,17.5,52.7,40.1,65.9,3.9,17.9,1896.0,49.0,750.0,76.0,88.0,6.0,1200.0,93.0,108.0,6.0,1730.0,115.0,142.0,4.0,2145.0,69.0,102.0,
2022/11/28,410.0,33.1,93.0,54.0,115.0,72.0,93.65,26.5,25.4,70.5,69.9,18.1,17.5,52.7,40.1,66.0,3.9,17.9,1901.0,49.0,735.0,71.0,92.0,6.0,1200.0,98.0,95.0,6.0,1725.0,113.0,120.0,4.0,2250.0,79.0,93.0,
2022/11/27,500.0,33.4,94.0,55.0,115.0,72.0,93.40,26.4,25.1,70.8,70.0,18.0,17.0,52.8,40.4,66.1,3.9,18.0,1903.0,48.0,725.0,68.0,87.0,0.0,1205.0,103.0,122.0,6.0,1640.0,93.0,111.0,4.0,2250.0,87.0,95.0,
2022/11/26,410.0,33.4,91.0,51.0,119.0,79.0,93.55,26.5,25.3,70.6,69.9,18.1,17.5,52.7,40.1,66.0,3.9,17.9,1900.0,49.0,740.0,68.0,86.0,0.0,1145.0,160.0,173.0,7.0,1740.0,105.0,129.0,4.0,2200.0,97.0,107.0,
2022/11/25,505.0,33.7,91.0,53.0,117.0,74.0,93.60,26.5,25.2,70.0,70.0,18.0,17.0,52.0,40.0,66.0,3.0,18.0,1905.0,49.0,735.0,65.0,92.0,0.0,1150.0,153.0,187.0,7.0,1830.0,132.0,156.0,4.0,2110.0,117.0,126.0,
2022/11/24,450.0,33.9,90.0,51.0,116.0,76.0,93.20,26.4,24.9,71.0,70.0,17.8,17.0,52.9,40.7,66.2,3.7,18.1,1904.0,48.0,725.0,91.0,101.0,6.0,1135.0,133.0,163.0,6.0,1720.0,137.0,152.0,4.0,2100.0,117.0,126.0,
2022/11/23,715.0,33.5,93.0,60.0,118.0,50.0,92.70,26.2,24.8,71.2,69.7,17.7,17.0,53.0,40.7,66.0,3.9,18.2,1895.0,47.0,735.0,77.0,104.0,6.0,1130.0,104.0,101.0,6.0,1700.0,180.0,176.0,5.0,2120.0,127.0,144.0,
2022/11/22,500.0,35.0,87.0,60.0,113.0,70.0,94.70,26.8,25.6,70.5,70.5,18.3,17.5,52.7,40.3,66.8,3.7,17.8,1923.0,49.0,800.0,61.0,96.0,0.0,1215.0,225.0,237.0,8.0,1720.0,157.0,219.0,5.0,2150.0,113.0,150.0,
2022/11/21,615.0,35.0,93.0,60.0,113.0,70.0,93.90,26.6,25.4,70.6,70.0,18.1,17.1,52.7,40.2,66.2,3.9,17.9,1908.0,49.0,715.0,71.0,96.0,6.0,1205.0,112.0,120.0,6.0,1700.0,111.0,117.0,4.0,2245.0,67.0,84.0,
2022/11/20,535.0,35.2,97.0,57.0,111.0,56.0,94.30,26.7,25.1,71.1,70.8,18.0,17.0,53.0,41.0,67.2,3.6,18.1,1934.0,47.0,800.0,74.0,89.0,6.0,1140.0,100.0,145.0,6.0,1740.0,125.0,146.0,4.0,2205.0,103.0,132.0,
2022/11/19,530.0,35.9,92.0,53.0,117.0,73.0,93.80,,,,,,,,,,,,,,735.0,79.0,,6.0,1130.0,99.0,,6.0,1720.0,128.0,,4.0,2100.0,94.0,,
2022/11/18,400.0,35.8,99.0,58.0,114.0,74.0,94.30,,,,,,,,,,,,,,630.0,81.0,,6.0,1130.0,123.0,,6.0,1715.0,125.0,,4.0,2100.0,70.0,,
2022/11/17,345.0,35.3,89.0,57.0,122.0,85.0,94.20,,,,,,,,,,,,,,725.0,68.0,,0.0,1215.0,193.0,,7.0,1740.0,183.0,,5.0,2130.0,92.0,,
2022/11/16,,,,,,,94.30,,,,,,,,,,,,,,600.0,92.0,,6.0,1210.0,153.0,,8.0,1755.0,117.0,,6.0,2130.0,65.0,,
2022/11/15,,,,,,,,,,,,,,,,,,,,,750.0,71.0,,6.0,1215.0,170.0,,8.0,1720.0,133.0,,7.0,2150.0,64.0,,
2022/11/14,,,,,,,,,,,,,,,,,,,,,720.0,84.0,,6.0,1150.0,218.0,,9.0,1715.0,165.0,,8.0,2100.0,107.0,,
2022/11/13,,,,,,,,,,,,,,,,,,,,,720.0,126.0,,7.0,1240.0,212.0,,9.0,1720.0,281.0,,11.0,2030.0,185.0,,
2022/11/12,,,,,,,,,,,,,,,,,,,,,,,,,,,,,1800.0,218.0,,9.0,2130.0,208.0,,
